##### start data
#F Ni_300mesh_2-13_NISTsi_nor.gr
#D Wed May  3 11:48:27 2006
#C 
#S 1    G(r)
#D 
#L r(A)    G(r)    d_r    d_Gr
   1.000000e-02     2.222569e-01    -7.539822e-03     1.558245e-04  
   2.000000e-02     4.377456e-01    -1.507964e-02     3.020109e-04  
   3.000000e-02     6.398291e-01    -2.261947e-02     4.296016e-04  
   4.000000e-02     8.221357e-01    -3.015929e-02     5.309582e-04  
   5.000000e-02     9.786996e-01    -3.769911e-02     6.003224e-04  
   6.000000e-02     1.104108e+00    -4.523893e-02     6.342736e-04  
   7.000000e-02     1.193653e+00    -5.277875e-02     6.320840e-04  
   8.000000e-02     1.243492e+00    -6.031858e-02     5.960157e-04  
   9.000000e-02     1.250797e+00    -6.785840e-02     5.317102e-04  
   1.000000e-01     1.213900e+00    -7.539822e-02     4.490776e-04  
   1.100000e-01     1.132416e+00    -8.293804e-02     3.645980e-04  
   1.200000e-01     1.007338e+00    -9.047786e-02     3.051091e-04  
   1.300000e-01     8.410883e-01    -9.801769e-02     3.007166e-04  
   1.400000e-01     6.375199e-01    -1.055575e-01     3.509576e-04  
   1.500000e-01     4.018630e-01    -1.130973e-01     4.247834e-04  
   1.600000e-01     1.406031e-01    -1.206372e-01     4.955657e-04  
   1.700000e-01    -1.387025e-01    -1.281770e-01     5.485096e-04  
   1.800000e-01    -4.276723e-01    -1.357168e-01     5.763777e-04  
   1.900000e-01    -7.174027e-01    -1.432566e-01     5.768943e-04  
   2.000000e-01    -9.988145e-01    -1.507964e-01     5.518226e-04  
   2.100000e-01    -1.263028e+00    -1.583363e-01     5.068389e-04  
   2.200000e-01    -1.501748e+00    -1.658761e-01     4.518939e-04  
   2.300000e-01    -1.707639e+00    -1.734159e-01     4.016154e-04  
   2.400000e-01    -1.874668e+00    -1.809557e-01     3.733925e-04  
   2.500000e-01    -1.998395e+00    -1.884956e-01     3.786842e-04  
   2.600000e-01    -2.076192e+00    -1.960354e-01     4.130279e-04  
   2.700000e-01    -2.107372e+00    -2.035752e-01     4.604555e-04  
   2.800000e-01    -2.093223e+00    -2.111150e-01     5.051825e-04  
   2.900000e-01    -2.036943e+00    -2.186548e-01     5.365271e-04  
   3.000000e-01    -1.943459e+00    -2.261947e-01     5.489055e-04  
   3.100000e-01    -1.819167e+00    -2.337345e-01     5.410466e-04  
   3.200000e-01    -1.671580e+00    -2.412743e-01     5.155296e-04  
   3.300000e-01    -1.508921e+00    -2.488141e-01     4.786260e-04  
   3.400000e-01    -1.339669e+00    -2.563539e-01     4.401010e-04  
   3.500000e-01    -1.172099e+00    -2.638938e-01     4.119548e-04  
   3.600000e-01    -1.013837e+00    -2.714336e-01     4.043467e-04  
   3.700000e-01    -8.714533e-01    -2.789734e-01     4.195278e-04  
   3.800000e-01    -7.501252e-01    -2.865132e-01     4.502542e-04  
   3.900000e-01    -6.533895e-01    -2.940531e-01     4.850357e-04  
   4.000000e-01    -5.829960e-01    -3.015929e-01     5.136803e-04  
   4.100000e-01    -5.388743e-01    -3.091327e-01     5.295067e-04  
   4.200000e-01    -5.192148e-01    -3.166725e-01     5.295967e-04  
   4.300000e-01    -5.206576e-01    -3.242123e-01     5.145786e-04  
   4.400000e-01    -5.385765e-01    -3.317522e-01     4.884072e-04  
   4.500000e-01    -5.674402e-01    -3.392920e-01     4.580475e-04  
   4.600000e-01    -6.012238e-01    -3.468318e-01     4.325269e-04  
   4.700000e-01    -6.338460e-01    -3.543716e-01     4.204302e-04  
   4.800000e-01    -6.596009e-01    -3.619115e-01     4.258850e-04  
   4.900000e-01    -6.735560e-01    -3.694513e-01     4.460712e-04  
   5.000000e-01    -6.718900e-01    -3.769911e-01     4.731570e-04  
   5.100000e-01    -6.521494e-01    -3.845309e-01     4.984460e-04  
   5.200000e-01    -6.134050e-01    -3.920707e-01     5.152094e-04  
   5.300000e-01    -5.563014e-01    -3.996106e-01     5.197062e-04  
   5.400000e-01    -4.829947e-01    -4.071504e-01     5.113271e-04  
   5.500000e-01    -3.969865e-01    -4.146902e-01     4.924702e-04  
   5.600000e-01    -3.028647e-01    -4.222300e-01     4.682424e-04  
   5.700000e-01    -2.059720e-01    -4.297699e-01     4.457104e-04  
   5.800000e-01    -1.120237e-01    -4.373097e-01     4.321488e-04  
   5.900000e-01    -2.670537e-02    -4.448495e-01     4.321730e-04  
   6.000000e-01     4.472470e-02    -4.523893e-01     4.453315e-04  
   6.100000e-01     9.779748e-02    -4.599291e-01     4.664612e-04  
   6.200000e-01     1.291363e-01    -4.674690e-01     4.884583e-04  
   6.300000e-01     1.366792e-01    -4.750088e-01     5.049979e-04  
   6.400000e-01     1.198069e-01    -4.825486e-01     5.119731e-04  
   6.500000e-01     7.936690e-02    -4.900884e-01     5.079647e-04  
   6.600000e-01     1.759462e-02    -4.976283e-01     4.942639e-04  
   6.700000e-01    -6.206218e-02    -5.051681e-01     4.746472e-04  
   6.800000e-01    -1.552018e-01    -5.127079e-01     4.547801e-04  
   6.900000e-01    -2.567904e-01    -5.202477e-01     4.409048e-04  
   7.000000e-01    -3.615221e-01    -5.277875e-01     4.376662e-04  
   7.100000e-01    -4.641931e-01    -5.353274e-01     4.459612e-04  
   7.200000e-01    -5.600599e-01    -5.428672e-01     4.625231e-04  
   7.300000e-01    -6.451574e-01    -5.504070e-01     4.816582e-04  
   7.400000e-01    -7.165542e-01    -5.579468e-01     4.976031e-04  
   7.500000e-01    -7.725263e-01    -5.654867e-01     5.061337e-04  
   7.600000e-01    -8.126383e-01    -5.730265e-01     5.052807e-04  
   7.700000e-01    -8.377277e-01    -5.805663e-01     4.955034e-04  
   7.800000e-01    -8.497930e-01    -5.881061e-01     4.795550e-04  
   7.900000e-01    -8.517984e-01    -5.956459e-01     4.620132e-04  
   8.000000e-01    -8.474067e-01    -6.031858e-01     4.482625e-04  
   8.100000e-01    -8.406653e-01    -6.107256e-01     4.427906e-04  
   8.200000e-01    -8.356671e-01    -6.182654e-01     4.473112e-04  
   8.300000e-01    -8.362125e-01    -6.258052e-01     4.599617e-04  
   8.400000e-01    -8.454996e-01    -6.333451e-01     4.762799e-04  
   8.500000e-01    -8.658647e-01    -6.408849e-01     4.911268e-04  
   8.600000e-01    -8.985926e-01    -6.484247e-01     5.003152e-04  
   8.700000e-01    -9.438120e-01    -6.559645e-01     5.015016e-04  
   8.800000e-01    -1.000482e+00    -6.635043e-01     4.945070e-04  
   8.900000e-01    -1.066470e+00    -6.710442e-01     4.812838e-04  
   9.000000e-01    -1.138722e+00    -6.785840e-01     4.655623e-04  
   9.100000e-01    -1.213494e+00    -6.861238e-01     4.520460e-04  
   9.200000e-01    -1.286651e+00    -6.936636e-01     4.450330e-04  
   9.300000e-01    -1.353990e+00    -7.012034e-01     4.467605e-04  
   9.400000e-01    -1.411572e+00    -7.087433e-01     4.564024e-04  
   9.500000e-01    -1.456038e+00    -7.162831e-01     4.705111e-04  
   9.600000e-01    -1.484877e+00    -7.238229e-01     4.845394e-04  
   9.700000e-01    -1.496639e+00    -7.313627e-01     4.944074e-04  
   9.800000e-01    -1.491055e+00    -7.389026e-01     4.975070e-04  
   9.900000e-01    -1.469082e+00    -7.464424e-01     4.931463e-04  
   1.000000e-00    -1.432844e+00    -7.539822e-01     4.826082e-04  
   1.010000e+00    -1.385490e+00    -7.615220e-01     4.688931e-04  
   1.020000e+00    -1.330966e+00    -7.690618e-01     4.560760e-04  
   1.030000e+00    -1.273735e+00    -7.766017e-01     4.481795e-04  
   1.040000e+00    -1.218445e+00    -7.841415e-01     4.477357e-04  
   1.050000e+00    -1.169590e+00    -7.916813e-01     4.547156e-04  
   1.060000e+00    -1.131171e+00    -7.992211e-01     4.665783e-04  
   1.070000e+00    -1.106404e+00    -8.067610e-01     4.794043e-04  
   1.080000e+00    -1.097469e+00    -8.143008e-01     4.893247e-04  
   1.090000e+00    -1.105352e+00    -8.218406e-01     4.935845e-04  
   1.100000e+00    -1.129763e+00    -8.293804e-01     4.910962e-04  
   1.110000e+00    -1.169153e+00    -8.369202e-01     4.825919e-04  
   1.120000e+00    -1.220829e+00    -8.444601e-01     4.704600e-04  
   1.130000e+00    -1.281150e+00    -8.519999e-01     4.582359e-04  
   1.140000e+00    -1.345796e+00    -8.595397e-01     4.496721e-04  
   1.150000e+00    -1.410089e+00    -8.670795e-01     4.474833e-04  
   1.160000e+00    -1.469347e+00    -8.746194e-01     4.522631e-04  
   1.170000e+00    -1.519231e+00    -8.821592e-01     4.622549e-04  
   1.180000e+00    -1.556075e+00    -8.896990e-01     4.741504e-04  
   1.190000e+00    -1.577165e+00    -8.972388e-01     4.843578e-04  
   1.200000e+00    -1.580951e+00    -9.047786e-01     4.900840e-04  
   1.210000e+00    -1.567163e+00    -9.123185e-01     4.899715e-04  
   1.220000e+00    -1.536850e+00    -9.198583e-01     4.843289e-04  
   1.230000e+00    -1.492303e+00    -9.273981e-01     4.750324e-04  
   1.240000e+00    -1.436896e+00    -9.349379e-01     4.650975e-04  
   1.250000e+00    -1.374845e+00    -9.424778e-01     4.578784e-04  
   1.260000e+00    -1.310898e+00    -9.500176e-01     4.559730e-04  
   1.270000e+00    -1.249988e+00    -9.575574e-01     4.602210e-04  
   1.280000e+00    -1.196875e+00    -9.650972e-01     4.693638e-04  
   1.290000e+00    -1.155790e+00    -9.726370e-01     4.805939e-04  
   1.300000e+00    -1.130124e+00    -9.801769e-01     4.906224e-04  
   1.310000e+00    -1.122176e+00    -9.877167e-01     4.966972e-04  
   1.320000e+00    -1.132983e+00    -9.952565e-01     4.972747e-04  
   1.330000e+00    -1.162236e+00    -1.002796e+00     4.923192e-04  
   1.340000e+00    -1.208302e+00    -1.010336e+00     4.832901e-04  
   1.350000e+00    -1.268341e+00    -1.017876e+00     4.728242e-04  
   1.360000e+00    -1.338509e+00    -1.025416e+00     4.640827e-04  
   1.370000e+00    -1.414242e+00    -1.032956e+00     4.597936e-04  
   1.380000e+00    -1.490584e+00    -1.040495e+00     4.612659e-04  
   1.390000e+00    -1.562549e+00    -1.048035e+00     4.678723e-04  
   1.400000e+00    -1.625486e+00    -1.055575e+00     4.773332e-04  
   1.410000e+00    -1.675414e+00    -1.063115e+00     4.866143e-04  
   1.420000e+00    -1.709312e+00    -1.070655e+00     4.929299e-04  
   1.430000e+00    -1.725335e+00    -1.078195e+00     4.944832e-04  
   1.440000e+00    -1.722941e+00    -1.085734e+00     4.908511e-04  
   1.450000e+00    -1.702930e+00    -1.093274e+00     4.830482e-04  
   1.460000e+00    -1.667372e+00    -1.100814e+00     4.732968e-04  
   1.470000e+00    -1.619451e+00    -1.108354e+00     4.644820e-04  
   1.480000e+00    -1.563226e+00    -1.115894e+00     4.593104e-04  
   1.490000e+00    -1.503322e+00    -1.123433e+00     4.593695e-04  
   1.500000e+00    -1.444594e+00    -1.130973e+00     4.645123e-04  
   1.510000e+00    -1.391761e+00    -1.138513e+00     4.729355e-04  
   1.520000e+00    -1.349068e+00    -1.146053e+00     4.819009e-04  
   1.530000e+00    -1.319972e+00    -1.153593e+00     4.886782e-04  
   1.540000e+00    -1.306900e+00    -1.161133e+00     4.913169e-04  
   1.550000e+00    -1.311083e+00    -1.168672e+00     4.890951e-04  
   1.560000e+00    -1.332477e+00    -1.176212e+00     4.826530e-04  
   1.570000e+00    -1.369787e+00    -1.183752e+00     4.738392e-04  
   1.580000e+00    -1.420580e+00    -1.191292e+00     4.652627e-04  
   1.590000e+00    -1.481489e+00    -1.198832e+00     4.595567e-04  
   1.600000e+00    -1.548480e+00    -1.206372e+00     4.585008e-04  
   1.610000e+00    -1.617166e+00    -1.213911e+00     4.623507e-04  
   1.620000e+00    -1.683155e+00    -1.221451e+00     4.697492e-04  
   1.630000e+00    -1.742379e+00    -1.228991e+00     4.782752e-04  
   1.640000e+00    -1.791407e+00    -1.236531e+00     4.853033e-04  
   1.650000e+00    -1.827698e+00    -1.244071e+00     4.887858e-04  
   1.660000e+00    -1.849787e+00    -1.251610e+00     4.877552e-04  
   1.670000e+00    -1.857373e+00    -1.259150e+00     4.825234e-04  
   1.680000e+00    -1.851333e+00    -1.266690e+00     4.745993e-04  
   1.690000e+00    -1.833620e+00    -1.274230e+00     4.663267e-04  
   1.700000e+00    -1.807097e+00    -1.281770e+00     4.602451e-04  
   1.710000e+00    -1.775281e+00    -1.289310e+00     4.582759e-04  
   1.720000e+00    -1.742049e+00    -1.296849e+00     4.610225e-04  
   1.730000e+00    -1.711311e+00    -1.304389e+00     4.675449e-04  
   1.740000e+00    -1.686680e+00    -1.311929e+00     4.757449e-04  
   1.750000e+00    -1.671171e+00    -1.319469e+00     4.831305e-04  
   1.760000e+00    -1.666949e+00    -1.327009e+00     4.875913e-04  
   1.770000e+00    -1.675145e+00    -1.334548e+00     4.879434e-04  
   1.780000e+00    -1.695760e+00    -1.342088e+00     4.841858e-04  
   1.790000e+00    -1.727665e+00    -1.349628e+00     4.774812e-04  
   1.800000e+00    -1.768687e+00    -1.357168e+00     4.698698e-04  
   1.810000e+00    -1.815794e+00    -1.364708e+00     4.637217e-04  
   1.820000e+00    -1.865346e+00    -1.372248e+00     4.610020e-04  
   1.830000e+00    -1.913404e+00    -1.379787e+00     4.625794e-04  
   1.840000e+00    -1.956066e+00    -1.387327e+00     4.679018e-04  
   1.850000e+00    -1.989803e+00    -1.394867e+00     4.752252e-04  
   1.860000e+00    -2.011774e+00    -1.402407e+00     4.822594e-04  
   1.870000e+00    -2.020083e+00    -1.409947e+00     4.869071e-04  
   1.880000e+00    -2.013962e+00    -1.417487e+00     4.878365e-04  
   1.890000e+00    -1.993863e+00    -1.425026e+00     4.847920e-04  
   1.900000e+00    -1.961450e+00    -1.432566e+00     4.786385e-04  
   1.910000e+00    -1.919481e+00    -1.440106e+00     4.711489e-04  
   1.920000e+00    -1.871603e+00    -1.447646e+00     4.645391e-04  
   1.930000e+00    -1.822058e+00    -1.455186e+00     4.608043e-04  
   1.940000e+00    -1.775334e+00    -1.462725e+00     4.610391e-04  
   1.950000e+00    -1.735783e+00    -1.470265e+00     4.650338e-04  
   1.960000e+00    -1.707238e+00    -1.477805e+00     4.713669e-04  
   1.970000e+00    -1.692659e+00    -1.485345e+00     4.779401e-04  
   1.980000e+00    -1.693846e+00    -1.492885e+00     4.826777e-04  
   1.990000e+00    -1.711230e+00    -1.500425e+00     4.841212e-04  
   2.000000e+00    -1.743787e+00    -1.507964e+00     4.817891e-04  
   2.010000e+00    -1.789053e+00    -1.515504e+00     4.762788e-04  
   2.020000e+00    -1.843283e+00    -1.523044e+00     4.691186e-04  
   2.030000e+00    -1.901712e+00    -1.530584e+00     4.623745e-04  
   2.040000e+00    -1.958921e+00    -1.538124e+00     4.580487e-04  
   2.050000e+00    -2.009278e+00    -1.545664e+00     4.574177e-04  
   2.060000e+00    -2.047419e+00    -1.553203e+00     4.605705e-04  
   2.070000e+00    -2.068733e+00    -1.560743e+00     4.663890e-04  
   2.080000e+00    -2.069813e+00    -1.568283e+00     4.729793e-04  
   2.090000e+00    -2.048826e+00    -1.575823e+00     4.783273e-04  
   2.100000e+00    -2.005781e+00    -1.583363e+00     4.809032e-04  
   2.110000e+00    -1.942649e+00    -1.590902e+00     4.800596e-04  
   2.120000e+00    -1.863325e+00    -1.598442e+00     4.761778e-04  
   2.130000e+00    -1.773424e+00    -1.605982e+00     4.705665e-04  
   2.140000e+00    -1.679910e+00    -1.613522e+00     4.651163e-04  
   2.150000e+00    -1.590577e+00    -1.621062e+00     4.617467e-04  
   2.160000e+00    -1.513405e+00    -1.628602e+00     4.617703e-04  
   2.170000e+00    -1.455844e+00    -1.636141e+00     4.654144e-04  
   2.180000e+00    -1.424056e+00    -1.643681e+00     4.717341e-04  
   2.190000e+00    -1.422177e+00    -1.651221e+00     4.789622e-04  
   2.200000e+00    -1.451656e+00    -1.658761e+00     4.851096e-04  
   2.210000e+00    -1.510720e+00    -1.666301e+00     4.885571e-04  
   2.220000e+00    -1.594013e+00    -1.673840e+00     4.884740e-04  
   2.230000e+00    -1.692452e+00    -1.681380e+00     4.850072e-04  
   2.240000e+00    -1.793323e+00    -1.688920e+00     4.792375e-04  
   2.250000e+00    -1.880627e+00    -1.696460e+00     4.729092e-04  
   2.260000e+00    -1.935682e+00    -1.704000e+00     4.679517e-04  
   2.270000e+00    -1.937948e+00    -1.711540e+00     4.658838e-04  
   2.280000e+00    -1.866052e+00    -1.719079e+00     4.672948e-04  
   2.290000e+00    -1.698950e+00    -1.726619e+00     4.716389e-04  
   2.300000e+00    -1.417180e+00    -1.734159e+00     4.774502e-04  
   2.310000e+00    -1.004113e+00    -1.741699e+00     4.828660e-04  
   2.320000e+00    -4.471563e-01    -1.749239e+00     4.862165e-04  
   2.330000e+00     2.611877e-01    -1.756779e+00     4.864876e-04  
   2.340000e+00     1.122464e+00    -1.764318e+00     4.835693e-04  
   2.350000e+00     2.131669e+00    -1.771858e+00     4.782738e-04  
   2.360000e+00     3.276968e+00    -1.779398e+00     4.721277e-04  
   2.370000e+00     4.539748e+00    -1.786938e+00     4.669542e-04  
   2.380000e+00     5.895017e+00    -1.794478e+00     4.643174e-04  
   2.390000e+00     7.312151e+00    -1.802017e+00     4.649934e-04  
   2.400000e+00     8.755951e+00    -1.809557e+00     4.686937e-04  
   2.410000e+00     1.018796e+01    -1.817097e+00     4.741821e-04  
   2.420000e+00     1.156798e+01    -1.824637e+00     4.797213e-04  
   2.430000e+00     1.285575e+01    -1.832177e+00     4.836391e-04  
   2.440000e+00     1.401261e+01    -1.839717e+00     4.848079e-04  
   2.450000e+00     1.500319e+01    -1.847256e+00     4.829314e-04  
   2.460000e+00     1.579690e+01    -1.854796e+00     4.786095e-04  
   2.470000e+00     1.636929e+01    -1.862336e+00     4.731799e-04  
   2.480000e+00     1.670306e+01    -1.869876e+00     4.683530e-04  
   2.490000e+00     1.678882e+01    -1.877416e+00     4.656955e-04  
   2.500000e+00     1.662542e+01    -1.884956e+00     4.661066e-04  
   2.510000e+00     1.621991e+01    -1.892495e+00     4.694950e-04  
   2.520000e+00     1.558720e+01    -1.900035e+00     4.748155e-04  
   2.530000e+00     1.474925e+01    -1.907575e+00     4.804428e-04  
   2.540000e+00     1.373406e+01    -1.915115e+00     4.847038e-04  
   2.550000e+00     1.257434e+01    -1.922655e+00     4.863647e-04  
   2.560000e+00     1.130606e+01    -1.930194e+00     4.849501e-04  
   2.570000e+00     9.966830e+00    -1.937734e+00     4.808546e-04  
   2.580000e+00     8.594353e+00    -1.945274e+00     4.752405e-04  
   2.590000e+00     7.224862e+00    -1.952814e+00     4.697320e-04  
   2.600000e+00     5.891749e+00    -1.960354e+00     4.659461e-04  
   2.610000e+00     4.624367e+00    -1.967894e+00     4.649742e-04  
   2.620000e+00     3.447110e+00    -1.975433e+00     4.670042e-04  
   2.630000e+00     2.378764e+00    -1.982973e+00     4.712596e-04  
   2.640000e+00     1.432179e+00    -1.990513e+00     4.762857e-04  
   2.650000e+00     6.142441e-01    -1.998053e+00     4.804430e-04  
   2.660000e+00    -7.384461e-02    -2.005593e+00     4.824054e-04  
   2.670000e+00    -6.360592e-01    -2.013132e+00     4.815203e-04  
   2.680000e+00    -1.080799e+00    -2.020672e+00     4.779705e-04  
   2.690000e+00    -1.419990e+00    -2.028212e+00     4.727259e-04  
   2.700000e+00    -1.668089e+00    -2.035752e+00     4.672927e-04  
   2.710000e+00    -1.841049e+00    -2.043292e+00     4.632873e-04  
   2.720000e+00    -1.955308e+00    -2.050832e+00     4.619308e-04  
   2.730000e+00    -2.026861e+00    -2.058371e+00     4.636334e-04  
   2.740000e+00    -2.070455e+00    -2.065911e+00     4.678545e-04  
   2.750000e+00    -2.098952e+00    -2.073451e+00     4.733075e-04  
   2.760000e+00    -2.122867e+00    -2.080991e+00     4.784054e-04  
   2.770000e+00    -2.150117e+00    -2.088531e+00     4.817550e-04  
   2.780000e+00    -2.185948e+00    -2.096071e+00     4.825390e-04  
   2.790000e+00    -2.233054e+00    -2.103610e+00     4.807136e-04  
   2.800000e+00    -2.291839e+00    -2.111150e+00     4.770016e-04  
   2.810000e+00    -2.360809e+00    -2.118690e+00     4.726880e-04  
   2.820000e+00    -2.437043e+00    -2.126230e+00     4.692483e-04  
   2.830000e+00    -2.516703e+00    -2.133770e+00     4.678855e-04  
   2.840000e+00    -2.595555e+00    -2.141309e+00     4.691232e-04  
   2.850000e+00    -2.669446e+00    -2.148849e+00     4.726223e-04  
   2.860000e+00    -2.734723e+00    -2.156389e+00     4.773071e-04  
   2.870000e+00    -2.788555e+00    -2.163929e+00     4.817391e-04  
